#EXPORTTYPE:  	DATA COMPARE                 	DATA COMPARE                 	DATA COMPARE                
#FILE:        	Sample1.ngb-dm2                    	Sample2.ngb-dm2                    	Sample3.ngb-dm2                  
#FORMAT:      	NETZSCH5                     	NETZSCH5                     	NETZSCH5                    
#FTYPE:       	ANSI                         	ANSI                         	ANSI                        
#IDENTITY:    	3	2	1
#DECIMAL:     	POINT                        	POINT                        	POINT                       
#SEPARATOR:   	TAB                          	TAB                          	TAB                         
#MTYPE:       	DMA                          	DMA                          	DMA                         
#INSTRUMENT:  	NETZSCH DMA 242              	NETZSCH DMA 242              	NETZSCH DMA 242             
#PROJECT:     	Amtrol                       	Amtrol                       	Amtrol                      
#DATE/TIME:   	5/29/2024 12:46:57 PM (UTC+1)	5/29/2024 11:00:19 AM (UTC+1)	5/29/2024 9:25:24 AM (UTC+1)
#LABORATORY:  	Piep                         	Piep                         	Piep                        
#OPERATOR:    	LG                           	LG                           	LG                          
#REMARK:      	                             	                             	                            
#SAMPLEHOLDER:	SingleCantilever16           	SingleCantilever16           	SingleCantilever16          
#SAMPLE:      	Resin                        	Resin                        	Resin                       
#SAMPLEDIM/MM:	16.000x10.660x3.660          	16.000x10.560x3.640          	16.000x10.720x3.700         
#MATERIAL:    	                             	                             	                            
#CORR. CODE:  	0	0	0
#RANGE:       	90.0°C/3.0(K/min)/260.0°C    	90.0°C/5.0(K/min)/260.0°C    	25.0°C/10.0(K/min)/400.0°C  
#SEGMENT:     	S1/2                         	S1/2                         	S1/2                        
#SEG. 1:      	90.0°C/3.0(K/min)/260.0°C    	90.0°C/5.0(K/min)/260.0°C    	25.0°C/10.0(K/min)/400.0°C  
			
##Temp./°C	"E""(1.000 Hz)/MPa"	"E""(1.000 Hz)/MPa"	"E""(1.000 Hz)/MPa"
24.59108	              	              	20.62772
25.59108	              	              	20.50417
26.59108	              	              	20.02451
27.59108	              	              	20.54463
28.59108	              	              	20.04196
29.59108	              	              	20.35362
30.59108	              	              	20.69897
31.59108	              	              	20.5918
32.59108	              	              	20.61876
33.59108	              	              	20.58934
34.59108	              	              	20.59118
35.59108	              	              	20.59332
36.59108	              	              	20.5564
37.59108	              	              	20.54736
38.59108	              	              	20.5526
39.59108	              	              	20.55141
40.59108	              	              	20.54423
41.59108	              	              	20.44619
42.59108	              	              	20.88766
43.59108	              	              	21.10479
44.59108	              	              	20.54363
45.59108	              	              	20.3444
46.59108	              	              	21.05199
47.59108	              	              	20.80099
48.59108	              	              	20.28514
49.59108	              	              	20.53655
50.59108	              	              	20.93199
51.59108	              	              	21.21274
52.59108	              	              	20.61003
53.59108	              	              	20.42841
54.59108	              	              	21.04192
55.59108	              	              	20.9512
56.59108	              	              	20.95766
57.59108	              	              	21.01498
58.59108	              	              	20.63085
59.59108	              	              	20.22096
60.59108	              	              	20.69338
61.59108	              	              	20.87481
62.59108	              	              	21.43692
63.59108	              	              	21.29736
64.59108	              	              	20.79045
65.59108	              	              	21.37726
66.59108	              	              	21.20708
67.59108	              	              	20.7223
68.59108	              	              	20.63442
69.59108	              	              	20.70212
70.59108	              	              	20.54253
71.59108	              	              	20.79394
72.59108	              	              	21.26192
73.59108	              	              	20.53224
74.59108	              	              	20.80626
75.59108	              	              	21.19563
76.59108	              	              	21.14703
77.59108	              	              	21.16945
78.59108	              	              	20.57197
79.59108	              	              	20.31109
80.59108	              	              	20.294
81.59108	              	              	20.30713
82.59108	              	              	20.89165
83.59108	              	              	20.58526
84.59108	              	              	20.18066
85.59108	              	              	20.67858
86.59108	              	              	20.41066
87.59108	16.75042	              	20.10962
88.59108	16.75042	              	20.41293
89.59108	16.75336	              	20.76096
90.59108	16.09138	15.09324	20.66205
91.59108	16.78097	15.06084	20.62682
92.59108	16.73573	15.07195	20.62241
93.59108	16.06382	14.431	20.56441
94.59108	16.67622	15.1075	20.49166
95.59108	16.8112	14.43475	20.47905
96.59108	17.26479	15.04045	20.54354
97.59108	17.24675	15.03296	20.30106
98.59108	17.24521	15.03814	19.80134
99.59108	17.7427	15.56849	20.41337
100.59108	17.1516	14.8028	20.30635
101.59108	17.7829	15.66326	20.19891
102.59108	17.65998	15.58265	20.45499
103.59108	17.80297	16.01386	20.89566
104.59108	18.27763	16.19813	20.85357
105.59108	18.52191	16.02421	20.87134
106.59108	18.17621	15.97692	20.56182
107.59108	18.43805	16.43161	20.08862
108.59108	18.88204	16.34209	20.65139
109.59108	18.78176	16.6948	20.13521
110.59108	18.73615	16.02797	20.33167
111.59108	19.30487	16.60764	21.18168
112.59108	19.26889	16.54713	20.62728
113.59108	18.58587	17.23805	20.62858
114.59108	19.51452	17.18421	21.18256
115.59108	20.21314	17.29738	21.08131
116.59108	19.69679	17.80076	20.99166
117.59108	20.19674	17.76453	21.05925
118.59108	20.70532	17.64243	20.79186
119.59108	21.38898	18.86947	20.29671
120.59108	21.75543	18.1853	20.63706
121.59108	21.70274	18.3119	20.86682
122.59108	22.48809	18.77295	20.72588
123.59108	23.01372	18.66216	21.00635
124.59108	23.51135	19.29363	21.38105
125.59108	23.33324	19.34656	21.27398
126.59108	24.77587	19.24928	21.86711
127.59108	25.23804	19.7861	21.90695
128.59108	26.4574	19.69665	21.76525
129.59108	27.23026	20.40428	21.69246
130.59108	29.04483	20.32615	22.3128
131.59108	30.01309	19.56139	22.29001
132.59108	31.55542	20.84215	22.24579
133.59108	33.27392	20.83649	22.93031
134.59108	35.38488	21.80726	23.25593
135.59108	39.026	21.79354	23.1491
136.59108	41.34477	22.08564	23.48121
137.59108	46.10951	22.80779	24.08586
138.59108	51.07691	23.13577	24.46334
139.59108	57.06803	23.89411	24.02899
140.59108	65.19961	23.83679	24.38325
141.59108	73.35174	25.22687	24.72997
142.59108	80.62707	25.96321	25.35372
143.59108	93.8253	26.90626	26.85273
144.59108	111.96563	27.4981	27.18247
145.59108	121.21446	29.87187	27.41221
146.59108	133.85187	30.50258	28.32861
147.59108	148.39721	31.49623	29.30247
148.59108	153.75371	33.18643	29.97052
149.59108	156.37594	35.18989	31.09004
150.59108	154.24893	38.94388	31.84016
151.59108	146.11293	41.27382	32.24816
152.59108	132.69789	43.33404	33.52497
153.59108	117.60548	50.24778	35.36353
154.59108	99.77052	52.57512	36.85996
155.59108	74.99375	61.35378	40.70447
156.59108	63.54175	72.47568	43.65746
157.59108	47.53538	77.79121	45.80465
158.59108	39.18901	84.7266	49.01839
159.59108	28.97903	101.26666	55.37333
160.59108	20.76932	118.25114	59.47813
161.59108	16.3821	125.61849	63.55759
162.59108	13.83111	134.05222	68.58345
163.59108	10.49403	153.25365	74.33213
164.59108	7.75174	158.50825	84.03826
165.59108	6.4889	156.13526	94.81138
166.59108	4.95244	153.2529	100.10957
167.59108	4.20273	135.71332	104.76759
168.59108	3.07348	107.7557	120.28606
169.59108	2.56535	95.07377	124.08977
170.59108	2.04642	82.64169	121.42296
171.59108	1.58495	61.6136	114.31424
172.59108	1.32986	40.36604	105.17532
173.59108	1.10152	36.47351	88.76922
174.59108	0.83864	29.99884	72.85319
175.59108	0.6805	18.67477	43.43257
176.59108	0.63482	15.22898	31.65595
177.59108	0.43927	11.07813	24.32973
178.59108	0.43959	9.63892	16.63921
179.59108	0.33524	6.94072	11.09662
180.59108	0.30278	6.04053	8.25565
181.59108	0.31399	5.37404	6.92607
182.59108	0.23895	3.98231	5.7772
183.59108	0.23972	2.9347	3.65595
184.59108	0.23739	2.6258	2.25925
185.59108	0.17651	2.38795	1.87262
186.59108	0.17425	1.57105	1.54976
187.59108	0.1722	1.36739	1.07224
188.59108	0.15931	1.13671	0.83309
189.59108	0.14427	0.79105	0.70268
190.59108	0.10957	0.70418	0.51093
191.59108	7.50E-02	0.55959	0.3844
192.59108	0.17415	0.57372	0.35526
193.59108	0.11157	0.43145	0.2728
194.59108	0.10379	0.37779	0.17404
195.59108	0.10614	0.31409	0.2485
196.59108	0.11849	0.24455	0.18657
197.59108	0.11761	0.24014	0.17581
198.59108	0.10939	0.24835	0.1737
199.59108	4.48E-02	0.21217	0.14003
200.59108	0.11607	0.16948	0.13123
201.59108	0.10917	0.17505	0.13129
202.59108	0.10811	0.17598	0.11192
203.59108	4.96E-02	0.18636	0.14239
204.59108	3.43E-02	0.11829	0.11359
205.59108	0.11265	0.12307	0.11329
206.59108	0.10959	4.86E-02	0.11267
207.59108	-1.56E-02	9.51E-02	5.21E-02
208.59108	4.41E-02	0.12672	0.113
209.59108	0.11292	0.13884	0.1184
210.59108	4.33E-02	0.10152	0.11494
211.59108	4.50E-02	0.11082	0.11311
212.59108	7.21E-02	0.11044	6.08E-02
213.59108	0.1293	6.84E-02	4.42E-02
214.59108	2.28736	5.75E-02	-8.12E-03
215.59108	4.5726	6.73E-02	6.19E-02
216.59108	7.93485	0.11139	5.02E-02
217.59108	10.03739	9.53E-02	4.18E-02
218.59108	12.66023	0.11202	5.30E-02
219.59108	16.73213	8.67E-02	9.81E-02
220.59108	19.415	6.48E-02	4.48E-02
221.59108	23.87124	6.86E-02	0.11537
222.59108	28.60283	5.23E-02	6.95E-02
223.59108	35.94904	0.1	5.39E-02
224.59108	39.41056	8.38E-02	-1.74E-02
225.59108	42.44185	-4.62E-03	4.10E-02
226.59108	42.2632	4.53E-02	4.53E-02
227.59108	44.04768	0.10862	0.1095
228.59108	45.46303	0.1001	4.65E-02
229.59108	50.36267	-1.48E-02	4.34E-02
230.59108	57.74887	4.99E-02	1.72E-03
231.59108	62.20656	3.72E-02	4.92E-02
232.59108	65.52136	4.13E-02	4.40E-02
233.59108	63.17028	4.01E-02	-1.39E-02
234.59108	64.19143	4.24E-02	2.35E-02
235.59108	65.08788	4.27E-02	4.41E-02
236.59108	70.38109	4.17E-02	4.37E-02
237.59108	77.98576	4.10E-02	4.37E-02
238.59108	79.67353	4.17E-02	              
239.59108	76.15356	              	              
240.59108	73.87511	              	              
241.59108	74.93327	              	              
242.59108	80.46331	              	              
243.59108	95.67596	              	              
244.59108	89.58421	              	              
245.59108	94.42665	              	              
246.59108	93.41092	              	              
247.59108	93.7679	              	              
248.59108	93.33902	              	              
249.59108	116.98055	              	              
250.59108	126.6965	              	              
251.59108	114.24781	              	              
